t	Theta RK	Energy 
0.2	0.0980067	0.00499615
0.4	0.0921062	0.00499699
0.6	0.0825339	0.00499805
0.8	0.0696713	0.004999
1	0.0540312	0.00499962
1.2	0.0362371	0.0049999
1.4	0.0169985	0.00499997
1.6	-0.00291784	0.00499996
1.8	-0.0227178	0.00499995
2	-0.0416121	0.00499983
2.2	-0.0588475	0.00499945
2.4	-0.0737368	0.00499872
2.6	-0.0856866	0.0049977
2.8	-0.0942204	0.00499666
3	-0.098998	0.00499593
3.2	-0.099829	0.00499579
3.4	-0.0966802	0.00499629
3.6	-0.0896772	0.00499723
3.8	-0.0790992	0.00499829
4	-0.0653678	0.00499915
4.2	-0.0490304	0.00499967
4.4	-0.0307385	0.00499987
4.6	-0.0112211	0.0049999
4.8	0.00874352	0.00499989
5	0.0283596	0.00499986
5.2	0.0468451	0.00499968
5.4	0.063463	0.0049992
5.6	0.077551	0.00499837
5.8	0.0885473	0.00499731
6	0.0960136	0.00499633
6.2	0.0996522	0.00499576
6.4	0.0993181	0.00499581
6.6	0.0950246	0.00499646
6.8	0.0869429	0.00499747
7	0.0753951	0.0049985
7.2	0.0608417	0.00499927
7.4	0.0438628	0.00499968
7.6	0.0251352	0.00499982
7.8	0.00540569	0.00499983
8	-0.0145393	0.00499982
8.2	-0.0339047	0.00499976
8.4	-0.0519185	0.00499951
8.6	-0.0678624	0.00499893
8.8	-0.081101	0.004998
9	-0.0911063	0.00499693
9.2	-0.0974797	0.00499604
9.4	-0.0999669	0.00499563
9.6	-0.0984689	0.00499587
9.8	-0.0930453	0.00499666
10	-0.0839124	0.00499771
10.2	-0.0714343	0.00499869
10.4	-0.0561085	0.00499936
10.6	-0.0385458	0.00499967
10.8	-0.0194465	0.00499976
11	0.000428102	0.00499976
11.2	0.0202856	0.00499975
11.4	0.0393343	0.00499965
11.6	0.056815	0.00499931
11.8	0.0720306	0.00499862
12	0.0843747	0.00499762
12.2	0.0933551	0.00499657
12.4	0.0986138	0.00499579
12.6	0.0999412	0.00499557
12.8	0.0972844	0.00499599
13	0.0907492	0.00499689
13.2	0.0805963	0.00499795
13.4	0.0672304	0.00499885
13.6	0.0511842	0.00499941
13.8	0.0330976	0.00499964
14	0.0136915	0.00499969
14.2	-0.00626035	0.00499969
14.4	-0.0259626	0.00499966
14.6	-0.0446299	0.00499951
14.8	-0.0615179	0.00499908
15	-0.0759535	0.00499828
15.2	-0.087361	0.00499724
15.4	-0.0952859	0.00499623
15.6	-0.0994121	0.00499559
15.8	-0.0995752	0.00499556
16	-0.0957686	0.00499614
16.2	-0.0881441	0.00499713
16.4	-0.0770058	0.00499817
16.6	-0.0627975	0.00499899
16.8	-0.0460857	0.00499944
17	-0.0275368	0.0049996
17.2	-0.00789006	0.00499962
17.4	0.0120712	0.00499961
17.6	0.0315512	0.00499957
17.8	0.0497734	0.00499935
18	0.0660113	0.00499881
18.2	0.0796176	0.00499792
18.4	0.0900498	0.00499685
18.6	0.0968922	0.00499592
18.8	0.0998719	0.00499544
19	0.09887	0.0049956
19.2	0.0939267	0.00499633
19.4	0.0852389	0.00499737
19.6	0.073153	0.00499837
19.8	0.0581508	0.00499909
20	0.0408304	0.00499944
20.2	0.0218823	0.00499954
20.4	0.0020618	0.00499955
20.6	-0.0178408	0.00499954
20.8	-0.0370322	0.00499946
21	-0.0547473	0.00499916
21.2	-0.0702798	0.00499851
21.4	-0.0830105	0.00499755
21.6	-0.0924319	0.00499648
21.8	-0.0981685	0.00499565
22	-0.0999915	0.00499535
22.2	-0.0978282	0.00499569
22.4	-0.091765	0.00499655
22.6	-0.0820434	0.00499761
22.8	-0.0690512	0.00499855
23	-0.0533062	0.00499916
23.2	-0.0354361	0.00499942
23.4	-0.0161533	0.00499948
23.6	0.0037734	0.00499948
23.8	0.0235497	0.00499946
24	0.0423871	0.00499933
24.2	0.0595347	0.00499894
24.4	0.0743089	0.00499819
24.6	0.0861207	0.00499716
24.8	0.0944992	0.00499613
25	0.0991104	0.00499543
25.2	0.0997706	0.00499532
25.4	0.0964532	0.00499583
25.6	0.0892907	0.00499679
25.8	0.0785686	0.00499784
26	0.0647143	0.00499869
26.2	0.0482801	0.00499919
26.4	0.0299212	0.00499938
26.6	0.0103694	0.00499941
26.8	-0.00959566	0.00499941
27	-0.0291782	0.00499937
27.2	-0.0475975	0.00499918
27.4	-0.0641193	0.00499869
27.6	-0.0780849	0.00499784
27.8	-0.0889376	0.00499678
28	-0.0962447	0.00499581
28.2	-0.0997149	0.00499526
28.4	-0.0992099	0.00499534
28.6	-0.0947498	0.00499601
28.8	-0.0865125	0.00499703
29	-0.0748262	0.00499805
29.2	-0.060157	0.00499881
29.4	-0.0430896	0.00499921
29.6	-0.0243044	0.00499933
29.8	-0.00455032	0.00499934
30	0.0153852	0.00499933
30.2	0.0347073	0.00499927
30.4	0.0526458	0.00499901
30.6	0.0684855	0.00499841
30.8	0.0815949	0.00499747
31	0.0914515	0.0049964
31.2	0.0976623	0.00499552
31.4	0.0999797	0.00499514
31.6	0.0983114	0.00499541
31.8	0.0927237	0.00499622
32	0.0834396	0.00499727
32.2	0.0708291	0.00499824
32.4	0.055395	0.00499889
32.6	0.0377525	0.00499919
32.8	0.018605	0.00499927
33	-0.00128421	0.00499927
33.2	-0.0211222	0.00499926
33.4	-0.0401181	0.00499915
33.6	-0.0575147	0.0049988
33.8	-0.0726183	0.00499809
34	-0.084827	0.00499709
34.2	-0.093654	0.00499604
34.4	-0.0987473	0.00499528
34.6	-0.0999041	0.00499509
34.8	-0.097078	0.00499553
35	-0.0903819	0.00499645
35.2	-0.0800827	0.00499751
35.4	-0.0665908	0.0049984
35.6	-0.0504444	0.00499894
35.8	-0.0322869	0.00499916
36	-0.0128423	0.0049992
36.2	0.00711428	0.0049992
36.4	0.0267872	0.00499917
36.6	0.0453922	0.00499901
36.8	0.0621876	0.00499856
37	0.0765038	0.00499775
37.2	0.0877702	0.00499671
37.4	0.0955375	0.0049957
37.6	0.0994961	0.00499509
37.8	0.0994882	0.00499508
38	0.0955141	0.00499569
38.2	0.0877323	0.00499669
38.4	0.076453	0.00499773
38.6	0.0621259	0.00499853
38.8	0.045322	0.00499897
39	0.0267114	0.00499912
39.2	0.00703591	0.00499913
39.4	-0.01292	0.00499913
39.6	-0.0323609	0.00499908
39.8	-0.0505117	0.00499885
40	-0.0666487	0.00499829
40.2	-0.0801288	0.00499739
40.4	-0.0904144	0.00499632
40.6	-0.0970956	0.0049954
40.8	-0.099906	0.00499495
41	-0.0987335	0.00499514
41.2	-0.093625	0.00499589
41.4	-0.084784	0.00499693
41.6	-0.0725631	0.00499793
41.8	-0.0574494	0.00499862
42	-0.0400454	0.00499896
42.2	-0.021045	0.00499906
42.4	-0.00120567	0.00499906
42.6	0.0186817	0.00499905
42.8	0.0378243	0.00499897
43	0.055459	0.00499866
43.2	0.0708828	0.00499799
43.4	0.0834808	0.00499702
43.6	0.0927507	0.00499595
43.8	0.098323	0.00499514
44	0.0999756	0.00499487
44.2	0.0976426	0.00499524
44.4	0.091417	0.00499611
44.6	0.081547	0.00499717
44.8	0.0684261	0.0049981
45	0.0525773	0.00499869
45.2	0.0346325	0.00499894
45.4	0.015307	0.00499899
45.6	-0.0046286	0.00499899
45.8	-0.0243797	0.00499897
46	-0.0431589	0.00499884
46.2	-0.0602175	0.00499843
46.4	-0.0748754	0.00499766
46.6	-0.0865484	0.00499663
46.8	-0.0947711	0.00499561
47	-0.0992156	0.00499492
47.2	-0.0997048	0.00499484
47.4	-0.0962192	0.00499538
47.6	-0.0888977	0.00499635
47.8	-0.0780323	0.0049974
48	-0.0640561	0.00499824
48.2	-0.0475262	0.00499872
48.4	-0.0291017	0.0049989
48.6	-0.00951704	0.00499893
48.8	0.010447	0.00499892
49	0.0299946	0.00499888
49.2	0.0483464	0.00499868
49.4	0.0647708	0.00499817
49.6	0.078613	0.00499731
49.8	0.0893213	0.00499625
50	0.0964687	0.00499529
50.2	0.0997703	0.00499476
50.4	0.0990944	0.00499487
50.6	0.0944681	0.00499556
50.8	0.0860758	0.00499659
51	0.074252	0.00499761
51.2	0.059468	0.00499835
51.4	0.0423134	0.00499873
51.6	0.0234719	0.00499885
51.8	0.0036947	0.00499885
52	-0.0162298	0.00499885
52.2	-0.0355072	0.00499878
52.4	-0.0533691	0.0049985
52.6	-0.0691034	0.00499789
52.8	-0.0820828	0.00499694
53	-0.0917899	0.00499587
53.2	-0.0978377	0.00499501
53.4	-0.0999852	0.00499466
53.6	-0.0981466	0.00499495
53.8	-0.0923954	0.00499577
54	-0.0829607	0.00499683
54.2	-0.0702188	0.00499779
54.4	-0.0546775	0.00499842
54.6	-0.0369565	0.00499872
54.8	-0.0177622	0.00499878
55	0.00214014	0.00499878
55.2	0.0219572	0.00499877
55.4	0.0408989	0.00499866
55.6	0.0582101	0.00499829
55.8	0.0732007	0.00499757
56	0.085273	0.00499656
56.2	0.0939459	0.00499551
56.4	0.0988736	0.00499477
56.6	0.0998596	0.00499461
56.8	0.0968646	0.00499508
57	0.090008	0.00499601
57.2	0.0795632	0.00499707
57.4	0.0659465	0.00499794
57.6	0.0497009	0.00499847
57.8	0.0314739	0.00499868
58	0.0119922	0.00499872
58.2	-0.00796761	0.00499871
58.4	-0.0276097	0.00499868
58.6	-0.0461512	0.00499852
58.8	-0.0628527	0.00499805
59	-0.0770486	0.00499723
59.2	-0.0881728	0.00499617
59.4	-0.095782	0.00499518
59.6	-0.0995727	0.00499459
59.8	-0.0993939	0.00499461
60	-0.0952527	0.00499524
60.2	-0.0873141	0.00499625
60.4	-0.0758947	0.00499728
60.6	-0.0614497	0.00499807
60.8	-0.044555	0.00499849
61	-0.0258841	0.00499863
61.2	-0.00618133	0.00499865
61.4	0.0137679	0.00499864
61.6	0.0331682	0.00499859
61.8	0.0512462	0.00499835
62	0.0672812	0.00499778
62.2	0.080634	0.00499686
62.4	0.0907723	0.00499579
62.6	0.0972918	0.00499488
62.8	0.0999327	0.00499446
63	0.0985897	0.00499467
63.2	0.0933164	0.00499544
63.4	0.0843229	0.00499649
63.6	0.0719679	0.00499748
63.8	0.0567438	0.00499816
64	0.0392575	0.00499849
64.2	0.0202063	0.00499857
64.4	0.000349533	0.00499858
64.6	-0.0195212	0.00499857
64.8	-0.0386136	0.00499847
65	-0.0561667	0.00499815
65.2	-0.0714806	0.00499747
65.4	-0.0839449	0.00499649
65.6	-0.0930626	0.00499543
65.8	-0.0984703	0.00499463
66	-0.0999524	0.00499438
66.2	-0.0974499	0.00499478
66.4	-0.0910624	0.00499567
66.6	-0.0810446	0.00499673
66.8	-0.067796	0.00499764
67	-0.0518446	0.00499822
67.2	-0.0338264	0.00499846
67.4	-0.0144597	0.00499851
67.6	0.00548337	0.00499851
67.8	0.0252079	0.00499848
68	0.0439274	0.00499834
68.2	0.0608958	0.00499792
68.4	0.0754364	0.00499714
68.6	0.0869697	0.0049961
68.8	0.0950359	0.00499508
69	0.0993134	0.00499442
69.2	0.0996317	0.00499437
69.4	0.0959781	0.00499493
69.6	0.0884983	0.00499591
69.8	0.0774904	0.00499695
70	0.0633933	0.00499778
70.2	0.046769	0.00499825
70.4	0.0282802	0.00499842
70.6	0.00866403	0.00499844
70.8	-0.0112975	0.00499843
71	-0.0308087	0.00499839
71.2	-0.0490916	0.00499818
71.4	-0.0654174	0.00499766
71.6	-0.0791353	0.00499678
71.8	-0.0896984	0.00499572
72	-0.0966856	0.00499477
72.2	-0.0998183	0.00499427
72.4	-0.0989717	0.0049944
72.6	-0.0941795	0.00499512
72.8	-0.0856328	0.00499615
73	-0.0736723	0.00499716
73.2	-0.0587747	0.00499788
73.4	-0.0415341	0.00499825
73.6	-0.0226377	0.00499836
73.8	-0.00283889	0.00499837
74	0.0170731	0.00499836
74.2	0.0363045	0.00499829
74.4	0.0540885	0.004998
74.6	0.0697162	0.00499737
74.8	0.0825647	0.00499641
75	0.0921216	0.00499534
75.2	0.098006	0.00499449
75.4	0.0999833	0.00499417
75.6	0.0979747	0.00499449
75.8	0.0920603	0.00499533
76	0.0824758	0.00499639
76.2	0.0696033	0.00499734
76.4	0.0539561	0.00499796
76.6	0.0361579	0.00499824
76.8	0.0169183	0.0049983
77	-0.00299584	0.0049983
77.2	-0.0227905	0.00499828
77.4	-0.0416766	0.00499816
77.6	-0.0589011	0.00499778
77.8	-0.0737776	0.00499705
78	-0.0857128	0.00499603
78.2	-0.094231	0.00499499
78.4	-0.0989926	0.00499427
78.6	-0.0998078	0.00499413
78.8	-0.096644	0.00499462
79	-0.0896275	0.00499557
79.2	-0.0790379	0.00499662
79.4	-0.0652974	0.00499749
79.6	-0.0489538	0.004998
79.8	-0.0306586	0.0049982
80	-0.0111413	0.00499823
80.2	0.00882028	0.00499823
80.4	0.0284302	0.0049982
80.6	0.0469066	0.00499802
80.8	0.0635131	0.00499754
81	0.0775876	0.0049967
81.2	0.088569	0.00499564
81.4	0.0960195	0.00499466
81.6	0.0996421	0.00499409
81.8	0.0992923	0.00499414
82	0.0949842	0.0049948
82.2	0.0868895	0.00499581
82.4	0.0753309	0.00499684
82.6	0.0607692	0.00499761
82.8	0.0437849	0.00499802
83	0.025055	0.00499815
83.2	0.00532638	0.00499816
83.4	-0.0146146	0.00499815
83.6	-0.0339729	0.0049981
83.8	-0.0519769	0.00499784
84	-0.0679087	0.00499726
84.2	-0.0811333	0.00499633
84.4	-0.0911235	0.00499526
84.6	-0.0974809	0.00499437
84.8	-0.0999522	0.00499397
85	-0.0984388	0.00499421
85.2	-0.093001	0.004995
85.4	-0.0838557	0.00499605
85.6	-0.0713675	0.00499703
85.8	-0.0560341	0.00499769
86	-0.0384669	0.00499801
86.2	-0.0193662	0.00499809
86.4	0.000506545	0.00499809
86.6	0.0203591	0.00499808
86.8	0.0393999	0.00499798
87	0.0568701	0.00499764
87.2	0.072073	0.00499695
87.4	0.0844027	0.00499595
87.6	0.0933676	0.0049949
87.8	0.0986104	0.00499412
88	0.0999219	0.0049939
88.2	0.09725	0.00499432
88.4	0.0907011	0.00499523
88.6	0.0805364	0.00499629
88.8	0.067161	0.00499719
89	0.0511082	0.00499775
89.2	0.033018	0.00499798
89.4	0.0136115	0.00499802
89.6	-0.00633766	0.00499802
89.8	-0.0260341	0.004998
90	-0.0446927	0.00499784
90.2	-0.0615695	0.00499741
90.4	-0.0759918	0.00499661
90.6	-0.0873847	0.00499557
90.8	-0.0952938	0.00499456
91	-0.099404	0.00499392
91.2	-0.0995514	0.00499389
91.4	-0.09573	0.00499448
91.6	-0.0880924	0.00499547
91.8	-0.0769428	0.00499651
92	-0.0627259	0.00499732
92.2	-0.0460084	0.00499778
92.4	-0.0274567	0.00499793
92.6	-0.00781047	0.00499795
92.8	0.0121471	0.00499795
93	0.0316204	0.0049979
93.2	0.0498332	0.00499768
93.4	0.0660592	0.00499714
93.6	0.0796518	0.00499625
93.8	0.0900689	0.00499519
94	0.0968954	0.00499425
94.2	0.0998591	0.00499378
94.4	0.0988418	0.00499394
94.6	0.0938841	0.00499467
94.8	0.0851836	0.00499571
95	0.0730873	0.00499671
95.2	0.0580772	0.00499742
95.4	0.0407519	0.00499778
95.6	0.021802	0.00499788
95.8	0.00198296	0.00499788
96	-0.0179151	0.00499787
96.2	-0.037099	0.00499779
96.4	-0.0548038	0.00499749
96.6	-0.0703239	0.00499685
96.8	-0.0830404	0.00499588
97	-0.0924465	0.00499481
97.2	-0.098167	0.00499398
97.4	-0.0999741	0.00499369
97.6	-0.0977956	0.00499403
97.8	-0.0917184	0.00499489
98	-0.0819848	0.00499595
98.2	-0.0689829	0.00499689
98.4	-0.0532308	0.00499749
98.6	-0.0353567	0.00499776
98.8	-0.0160731	0.00499781
99	0.00385123	0.00499781
99.2	0.023622	0.00499779
99.4	0.0424511	0.00499767
99.6	0.0595878	0.00499727
99.8	0.074349	0.00499652
100	0.0861462	0.0049955
100.2	0.0945091	0.00499446
100.4	0.0991043	0.00499376
100.6	0.0997486	0.00499365
100.8	0.0964164	0.00499417
101	0.0892405	0.00499513
101.2	0.0785069	0.00499618
101.4	0.0646436	0.00499703
101.6	0.0482032	0.00499753
101.8	0.0298412	0.00499772
102	0.0102896	0.00499774
102.2	-0.00967221	0.00499774
102.4	-0.0292484	0.00499771
102.6	-0.0476586	0.00499752
102.8	-0.0641688	0.00499702
103	-0.0781209	0.00499617
103.2	-0.0889586	0.00499511
103.4	-0.0962499	0.00499414
103.6	-0.0997041	0.00499359
103.8	-0.0991835	0.00499367
104	-0.0947089	0.00499435
104.2	-0.0864586	0.00499537
104.4	-0.0747617	0.00499639
104.6	-0.0600843	0.00499714
104.8	-0.0430116	0.00499754
105	-0.0242242	0.00499766
105.2	-0.00447113	0.00499767
105.4	0.0154602	0.00499767
105.6	0.0347751	0.0049976
105.8	0.0527037	0.00499734
106	0.0685312	0.00499674
106.2	0.0816267	0.0049958
106.4	0.091468	0.00499473
106.6	0.0976628	0.00499385
106.8	0.0999643	0.00499348
107	0.0982806	0.00499375
107.2	0.0926789	0.00499456
107.4	0.0833824	0.00499561
107.6	0.0707619	0.00499658
107.8	0.0553204	0.00499723
108	0.0376735	0.00499753
108.2	0.0185247	0.0049976
108.4	-0.0013625	0.0049976
108.6	-0.0211954	0.00499759
108.8	-0.0401833	0.00499749
109	-0.0575693	0.00499713
109.2	-0.0726602	0.00499642
109.4	-0.0848544	0.00499542
109.6	-0.0936658	0.00499437
109.8	-0.0987432	0.00499361
110	-0.0998841	0.00499342
110.2	-0.097043	0.00499387
110.4	-0.0903332	0.00499479
110.6	-0.0800223	0.00499585
110.8	-0.0665212	0.00499673
111	-0.0503681	0.00499728
111.2	-0.0322072	0.0049975
111.4	-0.0127623	0.00499754
111.6	0.00719141	0.00499753
111.8	0.0268584	0.00499751
112	0.0454546	0.00499735
112.2	0.0622387	0.00499689
112.4	0.0765416	0.00499609
112.6	0.0877931	0.00499504
112.8	0.0955447	0.00499404
113	0.0994873	0.00499342
113.2	0.0994637	0.00499342
113.4	0.0954749	0.00499403
113.6	0.08768	0.00499503
113.8	0.0763896	0.00499607
114	0.062054	0.00499686
114.2	0.0452445	0.0049973
114.4	0.0266313	0.00499745
114.6	0.00695642	0.00499747
114.8	-0.0129957	0.00499746
115	-0.0324298	0.00499741
115.2	-0.050571	0.00499718
115.4	-0.0666961	0.00499662
115.6	-0.0801623	0.00499572
115.8	-0.0904328	0.00499465
116	-0.0970981	0.00499373
116.2	-0.0998925	0.00499328
116.4	-0.0987046	0.00499347
116.6	-0.0935818	0.00499423
116.8	-0.0847282	0.00499527
117	-0.0724969	0.00499626
117.2	-0.0573755	0.00499696
117.4	-0.0399668	0.0049973
117.6	-0.0209647	0.00499739
117.8	-0.00112696	0.0049974
118	0.0187557	0.00499739
118.2	0.0378907	0.0049973
118.4	0.0555151	0.00499699
118.6	0.0709263	0.00499632
118.8	0.08351	0.00499535
119	0.0927645	0.00499428
119.2	0.0983209	0.00499347
119.4	0.0999576	0.0049932
119.6	0.0976094	0.00499358
119.8	0.0913699	0.00499445
120	0.0814879	0.00499551
120.2	0.0683574	0.00499643
120.4	0.0525017	0.00499702
120.6	0.0345531	0.00499727
120.8	0.0152269	0.00499733
121	-0.00470625	0.00499733
121.2	-0.0244518	0.00499731
121.4	-0.0432225	0.00499717
121.6	-0.0602701	0.00499676
121.8	-0.074915	0.004996
122	-0.0865733	0.00499496
122.2	-0.0947803	0.00499394
122.4	-0.0992088	0.00499326
122.6	-0.0996822	0.00499318
122.8	-0.0961818	0.00499372
123	-0.088847	0.00499469
123.2	-0.0779702	0.00499574
123.4	-0.0639851	0.00499657
123.6	-0.0474492	0.00499706
123.8	-0.0290217	0.00499723
124	-0.00943729	0.00499726
124.2	0.0105234	0.00499725
124.4	0.0300645	0.00499722
124.6	0.048407	0.00499702
124.8	0.0648198	0.00499651
125	0.0786484	0.00499564
125.2	0.0893416	0.00499458
125.4	0.0964732	0.00499362
125.6	0.0997588	0.0049931
125.8	0.0990674	0.00499321
126	0.0944266	0.0049939
126.2	0.0860215	0.00499493
126.4	0.074187	0.00499594
126.6	0.059395	0.00499668
126.8	0.0422352	0.00499706
127	0.0233917	0.00499718
127.2	0.00361562	0.00499719
127.4	-0.0163045	0.00499718
127.6	-0.0355747	0.00499711
127.8	-0.0534266	0.00499684
128	-0.0691486	0.00499622
128.2	-0.0821139	0.00499527
128.4	-0.0918057	0.0049942
128.6	-0.0978376	0.00499334
128.8	-0.0999691	0.00499299
129	-0.0981152	0.00499329
129.2	-0.0923499	0.00499411
129.4	-0.082903	0.00499517
129.6	-0.0701512	0.00499613
129.8	-0.0546027	0.00499676
130	-0.0368774	0.00499705
130.2	-0.017682	0.00499712
130.4	0.00221828	0.00499712
130.6	0.0220301	0.0049971
130.8	0.0409637	0.00499699
131	0.0582642	0.00499662
131.2	0.0732419	0.0049959
131.4	0.0852998	0.00499489
131.6	0.0939571	0.00499384
131.8	0.0988688	0.00499311
132	0.0998389	0.00499294
132.2	0.0968289	0.00499342
132.4	0.0899588	0.00499435
132.6	0.0795023	0.0049954
132.8	0.0658765	0.00499628
133	0.0496245	0.00499681
133.2	0.0313941	0.00499702
133.4	0.0119122	0.00499705
133.6	-0.00804454	0.00499705
133.8	-0.0276806	0.00499702
134	-0.0462131	0.00499685
134.2	-0.0629033	0.00499638
134.4	-0.0770857	0.00499556
134.6	-0.0881951	0.0049945
134.8	-0.0957885	0.00499351
135	-0.0995632	0.00499292
135.2	-0.0993688	0.00499295
135.4	-0.0952129	0.00499358
135.6	-0.0872613	0.00499459
135.8	-0.0758309	0.00499562
136	-0.0613776	0.0049964
136.2	-0.0444773	0.00499683
136.4	-0.025804	0.00499697
136.6	-0.00610194	0.00499698
136.8	0.0138433	0.00499697
137	0.0332367	0.00499692
137.2	0.0513051	0.00499668
137.4	0.0673281	0.00499611
137.6	0.080667	0.00499519
137.8	0.09079	0.00499412
138	0.0972937	0.00499322
138.2	0.0999186	0.00499279
138.4	0.0985602	0.00499301
138.6	0.0932726	0.00499378
138.8	0.0842667	0.00499483
139	0.0719014	0.00499581
139.2	0.0566697	0.00499649
139.4	0.0391788	0.00499682
139.6	0.020126	0.00499691
139.8	0.000270968	0.00499691
140	-0.0195949	0.0049969
140.2	-0.0386796	0.00499681
140.4	-0.0562222	0.00499648
140.6	-0.0715235	0.0049958
140.8	-0.0839735	0.00499482
141	-0.0930758	0.00499376
141.2	-0.0984675	0.00499296
141.4	-0.0999337	0.00499272
141.6	-0.097416	0.00499312
141.8	-0.0910148	0.00499401
142	-0.0809851	0.00499507
142.2	-0.067727	0.00499598
142.4	-0.0517688	0.00499655
142.6	-0.0337469	0.00499679
142.8	-0.0143796	0.00499684
143	0.00556084	0.00499684
143.2	0.0252796	0.00499682
143.4	0.0439906	0.00499667
143.6	0.0609479	0.00499625
143.8	0.0754754	0.00499547
144	0.0869939	0.00499443
144.2	0.0950445	0.00499341
144.4	0.0993059	0.00499276
144.6	0.0996085	0.0049927
144.8	0.0959401	0.00499327
145	0.088447	0.00499425
145.2	0.0774278	0.00499529
145.4	0.063322	0.00499612
145.6	0.0466918	0.00499658
145.8	0.0282002	0.00499675
146	0.00858437	0.00499677
146.2	-0.0113736	0.00499677
146.4	-0.0308782	0.00499673
146.6	-0.0491518	0.00499652
146.8	-0.0654659	0.00499599
147	-0.0791701	0.00499511
147.2	-0.0897181	0.00499405
147.4	-0.0966895	0.0049931
147.6	-0.0998062	0.0049926
147.8	-0.0989441	0.00499274
148	-0.0941375	0.00499346
148.2	-0.085578	0.00499449
148.4	-0.0736069	0.0049955
148.6	-0.0587014	0.00499622
148.8	-0.0414558	0.00499659
149	-0.0225575	0.0049967
149.2	-0.00275994	0.0049967
149.4	0.0171476	0.00499669
149.6	0.0363716	0.00499662
149.8	0.0541455	0.00499633
150	0.0697609	0.0049957
150.2	0.0825952	0.00499474
150.4	0.0921367	0.00499367
150.6	0.0980052	0.00499283
150.8	0.0999665	0.00499251
151	0.0979427	0.00499283
151.2	0.0920143	0.00499367
151.4	0.0824176	0.00499473
151.6	0.0695354	0.00499568
151.8	0.053881	0.00499629
152	0.0360787	0.00499657
152.2	0.0168381	0.00499663
