t	Theta Leapfrog	Energy 
0	0.1
0.01	0.1
0.02	0.1	0.0050005
0.03	0.09998	0.00499999
0.04	0.0999601	0.00500048
0.05	0.0999202	0.00499995
0.06	0.0998804	0.00500042
0.07	0.0998207	0.00499985
0.08	0.0997612	0.00500028
0.09	0.0996818	0.00499966
0.1	0.0996026	0.00500002
0.11	0.0995036	0.00499934
0.12	0.0994049	0.00499963
0.13	0.0992864	0.00499886
0.14	0.0991683	0.00499907
0.15	0.0990304	0.00499821
0.16	0.0988931	0.00499831
0.17	0.098736	0.00499734
0.18	0.0985795	0.00499732
0.19	0.0984033	0.00499623
0.2	0.0982278	0.00499608
0.21	0.0980326	0.00499486
0.22	0.0978383	0.00499456
0.23	0.0976243	0.00499319
0.24	0.0974112	0.00499273
0.25	0.0971787	0.00499121
0.26	0.096947	0.00499057
0.27	0.096696	0.00498888
0.28	0.096446	0.00498806
0.29	0.0961767	0.00498618
0.3	0.0959084	0.00498516
0.31	0.095621	0.0049831
0.32	0.0953347	0.00498187
0.33	0.0950294	0.0049796
0.34	0.0947253	0.00497815
0.35	0.0944022	0.00497567
0.36	0.0940804	0.00497398
0.37	0.0937398	0.00497128
0.38	0.0934006	0.00496935
0.39	0.0930427	0.00496643
0.4	0.0926862	0.00496424
0.41	0.0923112	0.00496108
0.42	0.0919376	0.00495863
0.43	0.0915457	0.00495522
0.44	0.0911554	0.00495251
0.45	0.0907468	0.00494885
0.46	0.0903399	0.00494585
0.47	0.0899148	0.00494193
0.48	0.0894915	0.00493864
0.49	0.0890503	0.00493446
0.5	0.0886109	0.00493088
0.51	0.0881537	0.00492643
0.52	0.0876983	0.00492255
0.53	0.0872254	0.00491782
0.54	0.0867544	0.00491363
0.55	0.0862661	0.00490862
0.56	0.0857797	0.00490412
0.57	0.0852761	0.00489882
0.58	0.0847745	0.00489401
0.59	0.084256	0.00488843
0.6	0.0837396	0.00488329
0.61	0.0832064	0.00487742
0.62	0.0826754	0.00487195
0.63	0.0821278	0.00486579
0.64	0.0815824	0.00486
0.65	0.0810207	0.00485354
0.66	0.0804612	0.00484742
0.67	0.0798856	0.00484066
0.68	0.0793123	0.00483421
0.69	0.0787232	0.00482716
0.7	0.0781364	0.00482037
0.71	0.077534	0.00481302
0.72	0.076934	0.0048059
0.73	0.0763186	0.00479826
0.74	0.0757057	0.0047908
0.75	0.0750776	0.00478287
0.76	0.074452	0.00477508
0.77	0.0738116	0.00476685
0.78	0.0731736	0.00475873
0.79	0.0725211	0.0047502
0.8	0.0718712	0.00474175
0.81	0.0712069	0.00473294
0.82	0.0705452	0.00472416
0.83	0.0698695	0.00471506
0.84	0.0691964	0.00470596
0.85	0.0685095	0.00469657
0.86	0.0678253	0.00468715
0.87	0.0671276	0.00467749
0.88	0.0664326	0.00466774
0.89	0.0657245	0.00465781
0.9	0.065019	0.00464775
0.91	0.0643007	0.00463754
0.92	0.063585	0.00462718
0.93	0.0628569	0.00461671
0.94	0.0621314	0.00460604
0.95	0.0613938	0.00459531
0.96	0.0606588	0.00458435
0.97	0.059912	0.00457336
0.98	0.0591679	0.00456211
0.99	0.0584122	0.00455087
1	0.0576593	0.00453934
1.01	0.0568951	0.00452787
1.02	0.0561337	0.00451606
1.03	0.0553613	0.00450435
1.04	0.0545917	0.00449227
1.05	0.0538116	0.00448034
1.06	0.0530342	0.004468
1.07	0.0522465	0.00445585
1.08	0.0514617	0.00444327
1.09	0.0506669	0.00443091
1.1	0.0498749	0.00441808
1.11	0.0490733	0.00440552
1.12	0.0482745	0.00439246
1.13	0.0474665	0.00437971
1.14	0.0466613	0.00436643
1.15	0.0458472	0.0043535
1.16	0.0450359	0.00434
1.17	0.044216	0.0043269
1.18	0.043399	0.0043132
1.19	0.0425737	0.00429993
1.2	0.0417512	0.00428604
1.21	0.040921	0.00427262
1.22	0.0400934	0.00425855
1.23	0.0392585	0.00424499
1.24	0.0384263	0.00423075
1.25	0.037587	0.00421706
1.26	0.0367504	0.00420266
1.27	0.0359071	0.00418884
1.28	0.0350665	0.0041743
1.29	0.0342196	0.00416037
1.3	0.0333754	0.00414569
1.31	0.0325252	0.00413167
1.32	0.0316777	0.00411687
1.33	0.0308246	0.00410275
1.34	0.0299742	0.00408784
1.35	0.0291185	0.00407365
1.36	0.0282654	0.00405864
1.37	0.0274075	0.00404438
1.38	0.0265522	0.00402928
1.39	0.0256925	0.00401497
1.4	0.0248353	0.0039998
1.41	0.023974	0.00398544
1.42	0.0231153	0.00397021
1.43	0.0222528	0.00395582
1.44	0.0213929	0.00394054
1.45	0.0205297	0.00392613
1.46	0.0196688	0.00391082
1.47	0.0188052	0.00389639
1.48	0.0179438	0.00388106
1.49	0.01708	0.00386664
1.5	0.0162185	0.00385129
1.51	0.015355	0.00383688
1.52	0.0144937	0.00382154
1.53	0.0136307	0.00380715
1.54	0.0127699	0.00379182
1.55	0.0119078	0.00377747
1.56	0.0110479	0.00376217
1.57	0.0101871	0.00374786
1.58	0.00932837	0.0037326
1.59	0.00846916	0.00371835
1.6	0.00761199	0.00370314
1.61	0.00675472	0.00368895
1.62	0.00589941	0.00367381
1.63	0.00504442	0.0036597
1.64	0.00419132	0.00364464
1.65	0.00333893	0.00363061
1.66	0.00248837	0.00361564
1.67	0.00163892	0.00360171
1.68	0.000791229	0.00358684
1.69	-5.49578e-05	0.00357302
1.7	-0.000899455	0.00355825
1.71	-0.00174205	0.00354455
1.72	-0.00258303	0.00352991
1.73	-0.00342171	0.00351634
1.74	-0.00425886	0.00350183
1.75	-0.0050933	0.00348839
1.76	-0.00592629	0.00347403
1.77	-0.00675618	0.00346074
1.78	-0.0075847	0.00344653
1.79	-0.00840973	0.00343339
1.8	-0.00923347	0.00341935
1.81	-0.0100533	0.00340637
1.82	-0.010872	0.00339251
1.83	-0.0116863	0.0033797
1.84	-0.0124996	0.00336602
1.85	-0.0133082	0.00335339
1.86	-0.0141157	0.00333991
1.87	-0.0149182	0.00332746
1.88	-0.0157197	0.00331418
1.89	-0.0165158	0.00330193
1.9	-0.0173111	0.00328886
1.91	-0.0181005	0.00327681
1.92	-0.0188892	0.00326397
1.93	-0.0196717	0.00325212
1.94	-0.0204535	0.0032395
1.95	-0.0212287	0.00322787
1.96	-0.0220033	0.00321549
1.97	-0.022771	0.00320408
1.98	-0.0235382	0.00319194
1.99	-0.024298	0.00318075
2	-0.0250576	0.00316886
2.01	-0.0258093	0.0031579
2.02	-0.0265608	0.00314627
2.03	-0.0273043	0.00313555
2.04	-0.0280475	0.00312418
2.05	-0.0287823	0.00311369
2.06	-0.0295171	0.00310259
2.07	-0.030243	0.00309235
2.08	-0.030969	0.00308152
2.09	-0.0316858	0.00307152
2.1	-0.0324027	0.00306097
2.11	-0.0331101	0.00305123
2.12	-0.0338178	0.00304095
2.13	-0.0345156	0.00303146
2.14	-0.0352138	0.00302147
2.15	-0.0359016	0.00301224
2.16	-0.0365901	0.00300254
2.17	-0.0372678	0.00299357
2.18	-0.0379463	0.00298416
2.19	-0.0386137	0.00297544
2.2	-0.0392819	0.00296633
2.21	-0.0399388	0.00295787
2.22	-0.0405965	0.00294905
2.23	-0.0412426	0.00294086
2.24	-0.0418897	0.00293234
2.25	-0.0425248	0.00292441
2.26	-0.043161	0.00291619
2.27	-0.0437849	0.00290852
2.28	-0.04441	0.0029006
2.29	-0.0450225	0.0028932
2.3	-0.0456363	0.00288557
2.31	-0.0462371	0.00287843
2.32	-0.0468394	0.00287111
2.33	-0.0474285	0.00286423
2.34	-0.0480191	0.0028572
2.35	-0.0485961	0.00285058
2.36	-0.0491749	0.00284385
2.37	-0.0497397	0.00283749
2.38	-0.0503064	0.00283106
2.39	-0.0508589	0.00282495
2.4	-0.0514134	0.00281882
2.41	-0.0519533	0.00281296
2.42	-0.0524953	0.00280712
2.43	-0.0530226	0.00280152
2.44	-0.0535521	0.00279596
2.45	-0.0540664	0.00279061
2.46	-0.0545832	0.00278534
2.47	-0.0550846	0.00278023
2.48	-0.0555884	0.00277525
2.49	-0.0560766	0.00277038
2.5	-0.0565674	0.00276567
2.51	-0.0570423	0.00276104
2.52	-0.0575199	0.00275661
2.53	-0.0579814	0.00275221
2.54	-0.0584457	0.00274805
2.55	-0.0588936	0.00274388
2.56	-0.0593444	0.00273998
2.57	-0.0597786	0.00273603
2.58	-0.0602159	0.0027324
2.59	-0.0606362	0.00272867
2.6	-0.0610598	0.00272528
2.61	-0.0614662	0.00272177
2.62	-0.061876	0.00271863
2.63	-0.0622684	0.00271532
2.64	-0.0626643	0.00271243
2.65	-0.0630425	0.00270932
2.66	-0.0634243	0.00270666
2.67	-0.0637883	0.00270374
2.68	-0.0641561	0.00270131
2.69	-0.0645057	0.00269859
2.7	-0.0648592	0.00269638
2.71	-0.0651945	0.00269383
2.72	-0.0655337	0.00269184
2.73	-0.0658545	0.00268946
2.74	-0.0661794	0.00268768
2.75	-0.0664856	0.00268547
2.76	-0.066796	0.00268388
2.77	-0.0670876	0.00268184
2.78	-0.0673835	0.00268044
2.79	-0.0676604	0.00267855
2.8	-0.0679418	0.00267733
2.81	-0.068204	0.00267558
2.82	-0.0684707	0.00267454
2.83	-0.0687181	0.00267293
2.84	-0.0689702	0.00267205
2.85	-0.0692027	0.00267057
2.86	-0.0694401	0.00266985
2.87	-0.0696578	0.00266849
2.88	-0.0698805	0.00266792
2.89	-0.0700833	0.00266667
2.9	-0.0702912	0.00266624
2.91	-0.0704791	0.0026651
2.92	-0.0706722	0.00266479
2.93	-0.0708452	0.00266375
2.94	-0.0710234	0.00266356
2.95	-0.0711815	0.00266261
2.96	-0.0713449	0.00266253
2.97	-0.0714881	0.00266167
2.98	-0.0716367	0.00266169
2.99	-0.0717649	0.00266089
3	-0.0718987	0.00266101
3.01	-0.0720119	0.00266028
3.02	-0.0721309	0.00266047
3.03	-0.0722293	0.0026598
3.04	-0.0723334	0.00266006
3.05	-0.0724169	0.00265944
3.06	-0.0725062	0.00265977
3.07	-0.0725748	0.00265918
3.08	-0.0726494	0.00265957
3.09	-0.0727032	0.00265902
3.1	-0.0727631	0.00265944
3.11	-0.072802	0.00265891
3.12	-0.0728472	0.00265937
3.13	-0.0728714	0.00265886
3.14	-0.0729019	0.00265934
3.15	-0.0729114	0.00265884
3.16	-0.0729273	0.00265934
3.17	-0.0729221	0.00265884
3.18	-0.0729234	0.00265934
3.19	-0.0729037	0.00265883
3.2	-0.0728905	0.00265933
3.21	-0.0728563	0.00265881
3.22	-0.0728286	0.00265929
3.23	-0.0727799	0.00265875
3.24	-0.0727379	0.00265921
3.25	-0.0726748	0.00265863
3.26	-0.0726185	0.00265906
3.27	-0.0725411	0.00265845
3.28	-0.0724706	0.00265884
3.29	-0.072379	0.00265819
3.3	-0.0722944	0.00265853
3.31	-0.0721887	0.00265783
3.32	-0.0720899	0.00265811
3.33	-0.0719703	0.00265735
3.34	-0.0718576	0.00265757
3.35	-0.071724	0.00265674
3.36	-0.0715975	0.00265689
3.37	-0.0714501	0.002656
3.38	-0.0713098	0.00265606
3.39	-0.0711487	0.00265509
3.4	-0.0709948	0.00265506
3.41	-0.0708202	0.00265401
3.42	-0.0706527	0.00265389
3.43	-0.0704646	0.00265275
3.44	-0.0702838	0.00265253
3.45	-0.0700824	0.00265129
3.46	-0.0698883	0.00265096
3.47	-0.0696738	0.00264962
3.48	-0.0694665	0.00264917
3.49	-0.0692389	0.00264774
3.5	-0.0690187	0.00264716
3.51	-0.0687781	0.00264562
3.52	-0.0685451	0.00264491
3.53	-0.0682918	0.00264325
3.54	-0.068046	0.00264242
3.55	-0.0677801	0.00264064
3.56	-0.0675217	0.00263966
3.57	-0.0672434	0.00263776
3.58	-0.0669726	0.00263664
3.59	-0.0666819	0.00263462
3.6	-0.0663989	0.00263334
3.61	-0.0660962	0.00263119
3.62	-0.065801	0.00262976
3.63	-0.0654863	0.00262748
3.64	-0.0651792	0.00262589
3.65	-0.0648528	0.00262347
3.66	-0.0645339	0.00262172
3.67	-0.0641959	0.00261916
3.68	-0.0638654	0.00261724
3.69	-0.063516	0.00261454
3.7	-0.0631741	0.00261245
3.71	-0.0628134	0.00260961
3.72	-0.0624603	0.00260735
3.73	-0.0620886	0.00260437
3.74	-0.0617245	0.00260193
3.75	-0.0613419	0.0025988
3.76	-0.0609669	0.00259618
3.77	-0.0605737	0.00259291
3.78	-0.060188	0.0025901
3.79	-0.0597843	0.00258668
3.8	-0.0593882	0.0025837
3.81	-0.0589743	0.00258013
3.82	-0.0585679	0.00257696
3.83	-0.0581439	0.00257324
3.84	-0.0577275	0.00256989
3.85	-0.0572937	0.00256602
3.86	-0.0568674	0.00256248
3.87	-0.0564239	0.00255846
3.88	-0.055988	0.00255474
3.89	-0.0555352	0.00255057
3.9	-0.0550898	0.00254666
3.91	-0.0546278	0.00254235
3.92	-0.0541731	0.00253825
3.93	-0.0537022	0.00253379
3.94	-0.0532385	0.00252951
3.95	-0.0527589	0.0025249
3.96	-0.0522864	0.00252043
3.97	-0.0517982	0.00251568
3.98	-0.0513172	0.00251103
3.99	-0.0508208	0.00250613
4	-0.0503314	0.0025013
4.01	-0.0498269	0.00249627
4.02	-0.0493295	0.00249125
4.03	-0.0488171	0.00248608
4.04	-0.0483118	0.00248089
4.05	-0.0477919	0.00247558
4.06	-0.047279	0.00247021
4.07	-0.0467517	0.00246476
4.08	-0.0462313	0.00245923
4.09	-0.045697	0.00245365
4.1	-0.0451694	0.00244794
4.11	-0.0446282	0.00244223
4.12	-0.0440937	0.00243636
4.13	-0.0435459	0.00243053
4.14	-0.0430047	0.00242449
4.15	-0.0424505	0.00241854
4.16	-0.0419029	0.00241234
4.17	-0.0413426	0.00240627
4.18	-0.0407888	0.00239992
4.19	-0.0402226	0.00239374
4.2	-0.0396628	0.00238723
4.21	-0.039091	0.00238094
4.22	-0.0385254	0.00237429
4.23	-0.0379483	0.00236789
4.24	-0.0373773	0.0023611
4.25	-0.036795	0.0023546
4.26	-0.0362188	0.00234767
4.27	-0.0356316	0.00234107
4.28	-0.0350504	0.00233401
4.29	-0.0344587	0.00232732
4.3	-0.0338728	0.00232014
4.31	-0.0332767	0.00231336
4.32	-0.0326863	0.00230605
4.33	-0.0320861	0.00229919
4.34	-0.0314915	0.00229177
4.35	-0.0308875	0.00228483
4.36	-0.0302889	0.0022773
4.37	-0.0296813	0.00227029
4.38	-0.029079	0.00226265
4.39	-0.0284681	0.00225557
4.4	-0.0278623	0.00224784
4.41	-0.0272483	0.0022407
4.42	-0.0266394	0.00223288
4.43	-0.0260226	0.00222568
4.44	-0.0254107	0.00221778
4.45	-0.0247913	0.00221053
4.46	-0.0241768	0.00220255
4.47	-0.0235551	0.00219525
4.48	-0.0229381	0.0021872
4.49	-0.0223144	0.00217986
4.5	-0.0216953	0.00217175
4.51	-0.0210698	0.00216438
4.52	-0.0204487	0.0021562
4.53	-0.0198217	0.00214881
4.54	-0.0191989	0.00214058
4.55	-0.0185707	0.00213316
4.56	-0.0179465	0.00212489
4.57	-0.0173173	0.00211745
4.58	-0.0166919	0.00210915
4.59	-0.016062	0.0021017
4.6	-0.0154357	0.00209336
4.61	-0.0148052	0.00208591
4.62	-0.0141783	0.00207755
4.63	-0.0135476	0.00207009
4.64	-0.0129202	0.00206172
4.65	-0.0122896	0.00205427
4.66	-0.0116621	0.00204589
4.67	-0.0110317	0.00203845
4.68	-0.0104042	0.00203007
4.69	-0.00977439	0.00202264
4.7	-0.00914731	0.00201427
4.71	-0.00851823	0.00200686
4.72	-0.00789173	0.0019985
4.73	-0.00726368	0.00199112
4.74	-0.00663802	0.00198278
4.75	-0.00601124	0.00197544
4.76	-0.00538666	0.00196713
4.77	-0.0047614	0.00195982
4.78	-0.00413815	0.00195154
4.79	-0.00351465	0.00194427
4.8	-0.00289297	0.00193603
4.81	-0.00227148	0.00192882
4.82	-0.0016516	0.00192063
4.83	-0.00103237	0.00191346
4.84	-0.000414533	0.00190532
4.85	0.000202216	0.00189822
4.86	0.000817765	0.00189014
4.87	0.00143179	0.0018831
4.88	0.00204482	0.00187509
4.89	0.00265588	0.00186811
4.9	0.00326615	0.00186017
4.91	0.00387402	0.00185327
4.92	0.00448131	0.00184541
4.93	0.00508575	0.00183858
4.94	0.00568983	0.00183081
4.95	0.00629061	0.00182406
4.96	0.00689126	0.00181638
4.97	0.00748816	0.00180971
4.98	0.00808513	0.00180213
4.99	0.00867793	0.00179555
5	0.00927102	0.00178807
5.01	0.00985948	0.00178159
5.02	0.0104485	0.00177421
5.03	0.0110324	0.00176783
5.04	0.011617	0.00176056
5.05	0.0121962	0.00175428
5.06	0.0127763	0.00174713
5.07	0.0133505	0.00174095
5.08	0.0139259	0.00173392
5.09	0.0144949	0.00172784
5.1	0.0150653	0.00172094
5.11	0.0156289	0.00171498
5.12	0.0161941	0.00170821
5.13	0.0167521	0.00170235
5.14	0.017312	0.00169572
5.15	0.0178642	0.00168998
5.16	0.0184185	0.00168348
5.17	0.0189647	0.00167786
5.18	0.0195132	0.0016715
5.19	0.0200532	0.001666
5.2	0.0205958	0.00165979
5.21	0.0211294	0.00165441
5.22	0.0216658	0.00164835
5.23	0.0221928	0.00164309
5.24	0.0227229	0.00163719
5.25	0.0232432	0.00163205
5.26	0.0237667	0.0016263
5.27	0.02428	0.00162129
5.28	0.0247969	0.0016157
5.29	0.0253031	0.00161082
5.3	0.025813	0.00160538
5.31	0.0263119	0.00160063
5.32	0.0268148	0.00159535
5.33	0.0273062	0.00159073
5.34	0.0278019	0.00158562
5.35	0.0282857	0.00158113
5.36	0.0287739	0.00157618
5.37	0.0292499	0.00157182
5.38	0.0297306	0.00156704
5.39	0.0301986	0.00156281
5.4	0.0306716	0.00155819
5.41	0.0311315	0.0015541
5.42	0.0315966	0.00154965
5.43	0.0320482	0.00154568
5.44	0.0325053	0.0015414
5.45	0.0329485	0.00153757
5.46	0.0333974	0.00153345
5.47	0.033832	0.00152975
5.48	0.0342725	0.0015258
5.49	0.0346985	0.00152223
5.5	0.0351306	0.00151845
5.51	0.0355477	0.00151501
5.52	0.0359711	0.0015114
5.53	0.0363793	0.00150808
5.54	0.036794	0.00150464
5.55	0.037193	0.00150145
5.56	0.0375989	0.00149817
5.57	0.0379887	0.00149511
5.58	0.0383855	0.00149199
5.59	0.038766	0.00148905
5.6	0.0391537	0.0014861
5.61	0.0395247	0.00148328
5.62	0.0399032	0.00148049
5.63	0.0402647	0.0014778
5.64	0.0406338	0.00147517
5.65	0.0409856	0.00147259
5.66	0.0413452	0.00147012
5.67	0.0416872	0.00146765
5.68	0.0420373	0.00146534
5.69	0.0423694	0.00146299
5.7	0.0427099	0.00146082
5.71	0.043032	0.00145859
5.72	0.0433627	0.00145657
5.73	0.0436748	0.00145444
5.74	0.0439956	0.00145258
5.75	0.0442975	0.00145056
5.76	0.0446084	0.00144883
5.77	0.0449001	0.00144691
5.78	0.0452009	0.00144533
5.79	0.0454823	0.00144351
5.8	0.0457731	0.00144207
5.81	0.0460441	0.00144035
5.82	0.0463247	0.00143903
5.83	0.0465853	0.00143741
5.84	0.0468556	0.00143622
5.85	0.0471056	0.00143469
5.86	0.0473656	0.00143363
5.87	0.0476051	0.00143218
5.88	0.0478548	0.00143125
5.89	0.0480837	0.00142988
5.9	0.0483228	0.00142907
5.91	0.0485411	0.00142778
5.92	0.0487698	0.00142708
5.93	0.0489772	0.00142587
5.94	0.0491954	0.00142527
5.95	0.0493921	0.00142414
5.96	0.0495997	0.00142365
5.97	0.0497857	0.00142258
5.98	0.0499827	0.00142219
5.99	0.0501578	0.00142119
6	0.0503441	0.00142089
6.01	0.0505083	0.00141995
6.02	0.050684	0.00141974
6.03	0.0508373	0.00141886
6.04	0.0510023	0.00141874
6.05	0.0511447	0.00141791
6.06	0.0512989	0.00141786
6.07	0.0514305	0.00141708
6.08	0.0515739	0.00141711
6.09	0.0516946	0.00141638
6.1	0.0518273	0.00141648
6.11	0.051937	0.00141578
6.12	0.0520589	0.00141594
6.13	0.0521577	0.00141529
6.14	0.0522688	0.00141551
6.15	0.0523567	0.00141489
6.16	0.052457	0.00141516
6.17	0.052534	0.00141457
6.18	0.0526235	0.00141489
6.19	0.0526896	0.00141432
6.2	0.0527684	0.00141468
6.21	0.0528235	0.00141414
6.22	0.0528916	0.00141453
6.23	0.0529359	0.00141401
6.24	0.0529932	0.00141443
6.25	0.0530266	0.00141392
6.26	0.0530732	0.00141437
6.27	0.0530959	0.00141387
6.28	0.0531317	0.00141434
6.29	0.0531436	0.00141384
6.3	0.0531688	0.00141433
6.31	0.05317	0.00141383
6.32	0.0531845	0.00141433
6.33	0.053175	0.00141383
6.34	0.0531789	0.00141433
6.35	0.0531587	0.00141382
6.36	0.0531522	0.00141432
6.37	0.0531214	0.00141381
6.38	0.0531043	0.0014143
6.39	0.0530629	0.00141377
6.4	0.0530353	0.00141425
6.41	0.0529835	0.00141371
6.42	0.0529455	0.00141417
6.43	0.0528833	0.00141361
6.44	0.052835	0.00141405
6.45	0.0527624	0.00141346
6.46	0.0527037	0.00141388
6.47	0.0526208	0.00141326
6.48	0.052552	0.00141364
6.49	0.0524589	0.001413
6.5	0.0523799	0.00141335
6.51	0.0522766	0.00141267
6.52	0.0521875	0.00141297
6.53	0.0520742	0.00141226
6.54	0.0519751	0.00141252
6.55	0.0518518	0.00141177
6.56	0.0517428	0.00141198
6.57	0.0516097	0.00141118
6.58	0.0514908	0.00141134
6.59	0.0513478	0.0014105
6.6	0.0512192	0.0014106
6.61	0.0510666	0.00140971
6.62	0.0509282	0.00140975
6.63	0.050766	0.00140881
6.64	0.0506181	0.00140878
6.65	0.0504464	0.00140779
6.66	0.050289	0.00140769
6.67	0.0501079	0.00140665
6.68	0.0499412	0.00140648
6.69	0.0497508	0.00140538
6.7	0.0495748	0.00140513
6.71	0.0493753	0.00140397
6.72	0.0491901	0.00140364
6.73	0.0489815	0.00140243
6.74	0.0487872	0.00140202
6.75	0.0485698	0.00140074
6.76	0.0483665	0.00140024
6.77	0.0481403	0.0013989
6.78	0.0479282	0.00139831
6.79	0.0476933	0.00139691
6.8	0.0474725	0.00139623
6.81	0.047229	0.00139476
6.82	0.0469997	0.00139399
6.83	0.0467478	0.00139245
6.84	0.04651	0.00139158
6.85	0.0462498	0.00138998
6.86	0.0460037	0.00138901
6.87	0.0457353	0.00138734
6.88	0.045481	0.00138627
6.89	0.0452047	0.00138453
6.9	0.0449422	0.00138336
6.91	0.0446581	0.00138155
6.92	0.0443877	0.00138028
6.93	0.0440958	0.00137839
6.94	0.0438177	0.00137702
6.95	0.0435182	0.00137506
6.96	0.0432324	0.00137359
6.97	0.0429256	0.00137156
6.98	0.0426323	0.00136997
6.99	0.0423181	0.00136788
7	0.0420175	0.00136619
7.01	0.0416962	0.00136402
7.02	0.0413884	0.00136222
7.03	0.0410602	0.00135998
7.04	0.0407452	0.00135807
7.05	0.0404102	0.00135577
7.06	0.0400884	0.00135375
7.07	0.0397468	0.00135137
7.08	0.0394182	0.00134925
7.09	0.0390701	0.0013468
7.1	0.0387349	0.00134457
7.11	0.0383806	0.00134206
7.12	0.0380389	0.00133972
7.13	0.0376784	0.00133714
7.14	0.0373305	0.00133469
7.15	0.0369641	0.00133204
7.16	0.03661	0.00132949
7.17	0.0362378	0.00132678
7.18	0.0358778	0.00132412
7.19	0.0354999	0.00132134
7.2	0.0351342	0.00131858
7.21	0.0347509	0.00131574
7.22	0.0343795	0.00131288
7.23	0.0339909	0.00130997
7.24	0.0336141	0.00130701
7.25	0.0332204	0.00130405
7.26	0.0328384	0.00130098
7.27	0.0324398	0.00129796
7.28	0.0320526	0.0012948
7.29	0.0316493	0.00129172
7.3	0.0312572	0.00128846
7.31	0.0308493	0.00128533
7.32	0.0304524	0.00128198
7.33	0.0300402	0.00127879
7.34	0.0296388	0.00127535
7.35	0.0292223	0.00127211
7.36	0.0288165	0.00126858
7.37	0.0283961	0.00126529
7.38	0.027986	0.00126167
7.39	0.0275618	0.00125834
7.4	0.0271477	0.00125464
7.41	0.0267198	0.00125126
7.42	0.0263019	0.00124747
7.43	0.0258705	0.00124405
7.44	0.0254489	0.00124019
7.45	0.0250143	0.00123673
7.46	0.0245892	0.00123279
7.47	0.0241515	0.00122929
7.48	0.0237231	0.00122528
7.49	0.0232826	0.00122175
7.5	0.022851	0.00121767
7.51	0.0224078	0.0012141
7.52	0.0219732	0.00120996
7.53	0.0215275	0.00120636
7.54	0.0210902	0.00120216
7.55	0.0206422	0.00119853
7.56	0.0202023	0.00119427
7.57	0.0197522	0.00119061
7.58	0.0193099	0.0011863
7.59	0.0188578	0.00118262
7.6	0.0184133	0.00117825
7.61	0.0179595	0.00117456
7.62	0.017513	0.00117014
7.63	0.0170576	0.00116643
