t	Theta Euler	Energy
0.01	0.1	0.0050005
0.02	0.09999	0.005001
0.03	0.09997	0.00500148
0.04	0.0999401	0.00500196
0.05	0.0999002	0.00500242
0.06	0.0998504	0.00500286
0.07	0.0997907	0.00500328
0.08	0.0997212	0.00500367
0.09	0.0996418	0.00500403
0.1	0.0995526	0.00500435
0.11	0.0994536	0.00500464
0.12	0.0993449	0.00500488
0.13	0.0992264	0.00500507
0.14	0.0990982	0.00500522
0.15	0.0989604	0.00500532
0.16	0.0988129	0.00500535
0.17	0.0986559	0.00500533
0.18	0.0984892	0.00500524
0.19	0.0983131	0.00500509
0.2	0.0981274	0.00500486
0.21	0.0979323	0.00500456
0.22	0.0977277	0.00500419
0.23	0.0975138	0.00500373
0.24	0.0972905	0.00500319
0.25	0.0970579	0.00500257
0.26	0.0968161	0.00500185
0.27	0.096565	0.00500104
0.28	0.0963048	0.00500014
0.29	0.0960354	0.00499914
0.3	0.0957569	0.00499804
0.31	0.0954694	0.00499683
0.32	0.0951729	0.00499552
0.33	0.0948674	0.00499409
0.34	0.094553	0.00499256
0.35	0.0942298	0.00499091
0.36	0.0938977	0.00498914
0.37	0.0935569	0.00498726
0.38	0.0932074	0.00498525
0.39	0.0928492	0.00498312
0.4	0.0924824	0.00498086
0.41	0.0921071	0.00497847
0.42	0.0917233	0.00497596
0.43	0.091331	0.00497331
0.44	0.0909303	0.00497053
0.45	0.0905214	0.00496761
0.46	0.0901041	0.00496455
0.47	0.0896786	0.00496135
0.48	0.089245	0.00495801
0.49	0.0888032	0.00495453
0.5	0.0883534	0.0049509
0.51	0.0878957	0.00494713
0.52	0.08743	0.00494321
0.53	0.0869565	0.00493914
0.54	0.0864751	0.00493492
0.55	0.085986	0.00493055
0.56	0.0854893	0.00492603
0.57	0.084985	0.00492136
0.58	0.0844731	0.00491653
0.59	0.0839537	0.00491154
0.6	0.0834269	0.0049064
0.61	0.0828928	0.0049011
0.62	0.0823514	0.00489564
0.63	0.0818029	0.00489003
0.64	0.0812471	0.00488426
0.65	0.0806843	0.00487833
0.66	0.0801145	0.00487224
0.67	0.0795378	0.00486598
0.68	0.0789542	0.00485957
0.69	0.0783639	0.004853
0.7	0.0777668	0.00484627
0.71	0.077163	0.00483938
0.72	0.0765527	0.00483233
0.73	0.0759359	0.00482512
0.74	0.0753127	0.00481774
0.75	0.0746832	0.00481021
0.76	0.0740473	0.00480252
0.77	0.0734053	0.00479467
0.78	0.0727572	0.00478666
0.79	0.072103	0.00477849
0.8	0.0714428	0.00477017
0.81	0.0707767	0.00476169
0.82	0.0701049	0.00475305
0.83	0.0694273	0.00474425
0.84	0.068744	0.00473531
0.85	0.0680552	0.0047262
0.86	0.0673609	0.00471695
0.87	0.0666611	0.00470755
0.88	0.065956	0.00469799
0.89	0.0652457	0.00468828
0.9	0.0645302	0.00467843
0.91	0.0638096	0.00466843
0.92	0.063084	0.00465828
0.93	0.0623534	0.00464799
0.94	0.061618	0.00463756
0.95	0.0608779	0.00462699
0.96	0.060133	0.00461628
0.97	0.0593836	0.00460543
0.98	0.0586296	0.00459444
0.99	0.0578713	0.00458332
1	0.0571085	0.00457207
1.01	0.0563415	0.00456068
1.02	0.0555704	0.00454917
1.03	0.0547951	0.00453753
1.04	0.0540159	0.00452576
1.05	0.0532327	0.00451388
1.06	0.0524456	0.00450187
1.07	0.0516549	0.00448974
1.08	0.0508604	0.0044775
1.09	0.0500624	0.00446514
1.1	0.0492609	0.00445267
1.11	0.048456	0.00444009
1.12	0.0476478	0.00442741
1.13	0.0468364	0.00441462
1.14	0.0460218	0.00440173
1.15	0.0452041	0.00438873
1.16	0.0443835	0.00437564
1.17	0.04356	0.00436246
1.18	0.0427337	0.00434918
1.19	0.0419047	0.00433581
1.2	0.0410731	0.00432236
1.21	0.040239	0.00430882
1.22	0.0394024	0.0042952
1.23	0.0385635	0.00428151
1.24	0.0377223	0.00426773
1.25	0.036879	0.00425388
1.26	0.0360335	0.00423997
1.27	0.0351861	0.00422598
1.28	0.0343368	0.00421193
1.29	0.0334856	0.00419782
1.3	0.0326327	0.00418365
1.31	0.0317782	0.00416942
1.32	0.0309221	0.00415514
1.33	0.0300645	0.00414081
1.34	0.0292056	0.00412643
1.35	0.0283453	0.00411201
1.36	0.0274839	0.00409754
1.37	0.0266214	0.00408304
1.38	0.0257578	0.0040685
1.39	0.0248933	0.00405393
1.4	0.024028	0.00403933
1.41	0.0231619	0.00402471
1.42	0.0222951	0.00401006
1.43	0.0214277	0.00399539
1.44	0.0205599	0.0039807
1.45	0.0196916	0.003966
1.46	0.0188231	0.00395129
1.47	0.0179542	0.00393657
1.48	0.0170853	0.00392185
1.49	0.0162163	0.00390712
1.5	0.0153473	0.0038924
1.51	0.0144784	0.00387768
1.52	0.0136098	0.00386296
1.53	0.0127414	0.00384826
1.54	0.0118734	0.00383357
1.55	0.0110059	0.0038189
1.56	0.0101389	0.00380424
1.57	0.00927253	0.00378961
1.58	0.0084069	0.003775
1.59	0.00754207	0.00376042
1.6	0.00667813	0.00374587
1.61	0.00581516	0.00373135
1.62	0.00495325	0.00371687
1.63	0.00409248	0.00370243
1.64	0.00323294	0.00368803
1.65	0.00237471	0.00367368
1.66	0.00151787	0.00365937
1.67	0.000662507	0.00364512
1.68	-0.000191296	0.00363092
1.69	-0.00104346	0.00361677
1.7	-0.0018939	0.00360269
1.71	-0.00274253	0.00358866
1.72	-0.00358928	0.0035747
1.73	-0.00443405	0.0035608
1.74	-0.00527679	0.00354698
1.75	-0.00611739	0.00353322
1.76	-0.00695578	0.00351954
1.77	-0.00779188	0.00350594
1.78	-0.00862562	0.00349241
1.79	-0.00945691	0.00347897
1.8	-0.0102857	0.00346561
1.81	-0.0111118	0.00345234
1.82	-0.0119353	0.00343915
1.83	-0.012756	0.00342606
1.84	-0.0135739	0.00341305
1.85	-0.0143889	0.00340015
1.86	-0.0152009	0.00338734
1.87	-0.0160098	0.00337463
1.88	-0.0168156	0.00336202
1.89	-0.0176182	0.00334951
1.9	-0.0184175	0.00333711
1.91	-0.0192134	0.00332481
1.92	-0.0200059	0.00331263
1.93	-0.0207949	0.00330055
1.94	-0.0215803	0.00328859
1.95	-0.022362	0.00327674
1.96	-0.0231401	0.00326501
1.97	-0.0239143	0.0032534
1.98	-0.0246847	0.0032419
1.99	-0.0254512	0.00323053
2	-0.0262136	0.00321927
2.01	-0.026972	0.00320814
2.02	-0.0277262	0.00319714
2.03	-0.0284763	0.00318626
2.04	-0.029222	0.00317551
2.05	-0.0299635	0.00316489
2.06	-0.0307005	0.00315439
2.07	-0.031433	0.00314403
2.08	-0.032161	0.0031338
2.09	-0.0328844	0.00312371
2.1	-0.0336032	0.00311375
2.11	-0.0343172	0.00310392
2.12	-0.0350265	0.00309423
2.13	-0.0357308	0.00308467
2.14	-0.0364303	0.00307526
2.15	-0.0371248	0.00306598
2.16	-0.0378143	0.00305684
2.17	-0.0384987	0.00304784
2.18	-0.0391779	0.00303897
2.19	-0.0398519	0.00303025
2.2	-0.0405207	0.00302168
2.21	-0.0411841	0.00301324
2.22	-0.0418422	0.00300494
2.23	-0.0424948	0.00299679
2.24	-0.0431419	0.00298877
2.25	-0.0437835	0.0029809
2.26	-0.0444195	0.00297318
2.27	-0.0450498	0.00296559
2.28	-0.0456745	0.00295815
2.29	-0.0462933	0.00295085
2.3	-0.0469064	0.00294369
2.31	-0.0475136	0.00293667
2.32	-0.048115	0.0029298
2.33	-0.0487103	0.00292307
2.34	-0.0492997	0.00291648
2.35	-0.049883	0.00291003
2.36	-0.0504602	0.00290372
2.37	-0.0510313	0.00289755
2.38	-0.0515961	0.00289153
2.39	-0.0521548	0.00288564
2.4	-0.0527072	0.00287989
2.41	-0.0532532	0.00287427
2.42	-0.0537929	0.0028688
2.43	-0.0543262	0.00286346
2.44	-0.054853	0.00285826
2.45	-0.0553734	0.00285319
2.46	-0.0558872	0.00284826
2.47	-0.0563945	0.00284346
2.48	-0.0568951	0.00283879
2.49	-0.0573891	0.00283426
2.5	-0.0578765	0.00282985
2.51	-0.0583571	0.00282557
2.52	-0.058831	0.00282143
2.53	-0.0592981	0.0028174
2.54	-0.0597584	0.00281351
2.55	-0.0602118	0.00280973
2.56	-0.0606583	0.00280609
2.57	-0.061098	0.00280256
2.58	-0.0615306	0.00279915
2.59	-0.0619564	0.00279586
2.6	-0.0623751	0.00279269
2.61	-0.0627867	0.00278963
2.62	-0.0631913	0.00278669
2.63	-0.0635889	0.00278387
2.64	-0.0639793	0.00278115
2.65	-0.0643625	0.00277854
2.66	-0.0647386	0.00277604
2.67	-0.0651076	0.00277365
2.68	-0.0654693	0.00277136
2.69	-0.0658237	0.00276917
2.7	-0.0661709	0.00276708
2.71	-0.0665109	0.0027651
2.72	-0.0668435	0.00276321
2.73	-0.0671688	0.00276141
2.74	-0.0674868	0.00275971
2.75	-0.0677975	0.0027581
2.76	-0.0681007	0.00275658
2.77	-0.0683966	0.00275515
2.78	-0.0686851	0.0027538
2.79	-0.0689662	0.00275253
2.8	-0.0692398	0.00275135
2.81	-0.069506	0.00275025
2.82	-0.0697647	0.00274922
2.83	-0.070016	0.00274827
2.84	-0.0702598	0.00274739
2.85	-0.070496	0.00274658
2.86	-0.0707248	0.00274584
2.87	-0.0709461	0.00274517
2.88	-0.0711599	0.00274456
2.89	-0.0713662	0.00274402
2.9	-0.0715649	0.00274353
2.91	-0.0717561	0.0027431
2.92	-0.0719397	0.00274273
2.93	-0.0721158	0.00274241
2.94	-0.0722844	0.00274214
2.95	-0.0724454	0.00274192
2.96	-0.0725989	0.00274175
2.97	-0.0727448	0.00274162
2.98	-0.0728831	0.00274153
2.99	-0.0730139	0.00274148
3	-0.0731372	0.00274147
3.01	-0.0732529	0.00274149
3.02	-0.0733611	0.00274155
3.03	-0.0734617	0.00274163
3.04	-0.0735548	0.00274175
3.05	-0.0736403	0.00274189
3.06	-0.0737184	0.00274205
3.07	-0.0737889	0.00274224
3.08	-0.0738519	0.00274244
3.09	-0.0739073	0.00274266
3.1	-0.0739553	0.0027429
3.11	-0.0739958	0.00274315
3.12	-0.0740289	0.0027434
3.13	-0.0740544	0.00274367
3.14	-0.0740725	0.00274394
3.15	-0.0740832	0.00274421
3.16	-0.0740865	0.00274449
3.17	-0.0740823	0.00274476
3.18	-0.0740707	0.00274503
3.19	-0.0740517	0.0027453
3.2	-0.0740254	0.00274555
3.21	-0.0739917	0.0027458
3.22	-0.0739507	0.00274603
3.23	-0.0739024	0.00274626
3.24	-0.0738467	0.00274646
3.25	-0.0737838	0.00274665
3.26	-0.0737137	0.00274681
3.27	-0.0736362	0.00274696
3.28	-0.0735516	0.00274708
3.29	-0.0734598	0.00274717
3.3	-0.0733608	0.00274723
3.31	-0.0732547	0.00274727
3.32	-0.0731414	0.00274727
3.33	-0.073021	0.00274724
3.34	-0.0728936	0.00274717
3.35	-0.0727591	0.00274706
3.36	-0.0726176	0.00274692
3.37	-0.0724691	0.00274673
3.38	-0.0723137	0.0027465
3.39	-0.0721513	0.00274622
3.4	-0.071982	0.0027459
3.41	-0.0718058	0.00274553
3.42	-0.0716228	0.00274511
3.43	-0.0714329	0.00274463
3.44	-0.0712363	0.00274411
3.45	-0.0710329	0.00274353
3.46	-0.0708228	0.00274289
3.47	-0.0706061	0.00274219
3.48	-0.0703826	0.00274144
3.49	-0.0701526	0.00274062
3.5	-0.069916	0.00273975
3.51	-0.0696728	0.00273881
3.52	-0.0694232	0.0027378
3.53	-0.069167	0.00273673
3.54	-0.0689045	0.00273559
3.55	-0.0686355	0.00273438
3.56	-0.0683602	0.0027331
3.57	-0.0680786	0.00273175
3.58	-0.0677907	0.00273033
3.59	-0.0674966	0.00272883
3.6	-0.0671963	0.00272726
3.61	-0.0668898	0.00272562
3.62	-0.0665773	0.0027239
3.63	-0.0662586	0.0027221
3.64	-0.065934	0.00272022
3.65	-0.0656033	0.00271827
3.66	-0.0652668	0.00271623
3.67	-0.0649243	0.00271411
3.68	-0.0645761	0.00271192
3.69	-0.064222	0.00270964
3.7	-0.0638621	0.00270727
3.71	-0.0634966	0.00270483
3.72	-0.0631254	0.0027023
3.73	-0.0627486	0.00269968
3.74	-0.0623662	0.00269699
3.75	-0.0619784	0.0026942
3.76	-0.061585	0.00269133
3.77	-0.0611863	0.00268837
3.78	-0.0607822	0.00268533
3.79	-0.0603728	0.0026822
3.8	-0.0599581	0.00267898
3.81	-0.0595382	0.00267568
3.82	-0.0591132	0.00267229
3.83	-0.0586831	0.00266881
3.84	-0.0582479	0.00266524
3.85	-0.0578077	0.00266158
3.86	-0.0573625	0.00265784
3.87	-0.0569125	0.002654
3.88	-0.0564577	0.00265008
3.89	-0.055998	0.00264608
3.9	-0.0555337	0.00264198
3.91	-0.0550646	0.0026378
3.92	-0.054591	0.00263353
3.93	-0.0541127	0.00262917
3.94	-0.05363	0.00262472
3.95	-0.0531429	0.00262019
3.96	-0.0526513	0.00261557
3.97	-0.0521554	0.00261087
3.98	-0.0516553	0.00260608
3.99	-0.0511509	0.00260121
4	-0.0506424	0.00259625
4.01	-0.0501298	0.00259121
4.02	-0.0496131	0.00258608
4.03	-0.0490925	0.00258087
4.04	-0.0485679	0.00257558
4.05	-0.0480395	0.00257021
4.06	-0.0475072	0.00256475
4.07	-0.0469713	0.00255922
4.08	-0.0464316	0.00255361
4.09	-0.0458884	0.00254791
4.1	-0.0453416	0.00254214
4.11	-0.0447912	0.0025363
4.12	-0.0442375	0.00253037
4.13	-0.0436804	0.00252438
4.14	-0.04312	0.00251831
4.15	-0.0425563	0.00251216
4.16	-0.0419894	0.00250594
4.17	-0.0414194	0.00249965
4.18	-0.0408464	0.0024933
4.19	-0.0402704	0.00248687
4.2	-0.0396914	0.00248037
4.21	-0.0391096	0.00247381
4.22	-0.0385249	0.00246718
4.23	-0.0379375	0.00246049
4.24	-0.0373475	0.00245374
4.25	-0.0367548	0.00244692
4.26	-0.0361596	0.00244004
4.27	-0.0355619	0.0024331
4.28	-0.0349617	0.00242611
4.29	-0.0343593	0.00241906
4.3	-0.0337545	0.00241195
4.31	-0.0331475	0.00240479
4.32	-0.0325383	0.00239757
4.33	-0.031927	0.00239031
4.34	-0.0313138	0.00238299
4.35	-0.0306985	0.00237563
4.36	-0.0300813	0.00236822
4.37	-0.0294623	0.00236076
4.38	-0.0288416	0.00235326
4.39	-0.0282191	0.00234572
4.4	-0.027595	0.00233814
4.41	-0.0269693	0.00233052
4.42	-0.0263421	0.00232286
4.43	-0.0257135	0.00231516
4.44	-0.0250835	0.00230743
4.45	-0.0244522	0.00229966
4.46	-0.0238196	0.00229187
4.47	-0.0231858	0.00228404
4.48	-0.022551	0.00227619
4.49	-0.0219151	0.00226831
4.5	-0.0212782	0.0022604
4.51	-0.0206404	0.00225247
4.52	-0.0200017	0.00224452
4.53	-0.0193622	0.00223655
4.54	-0.0187221	0.00222856
4.55	-0.0180812	0.00222056
4.56	-0.0174398	0.00221253
4.57	-0.0167979	0.0022045
4.58	-0.0161555	0.00219645
4.59	-0.0155127	0.0021884
4.6	-0.0148695	0.00218033
4.61	-0.0142262	0.00217226
4.62	-0.0135826	0.00216418
4.63	-0.0129388	0.0021561
4.64	-0.012295	0.00214802
4.65	-0.0116512	0.00213994
4.66	-0.0110075	0.00213186
4.67	-0.0103638	0.00212378
4.68	-0.00972041	0.00211571
4.69	-0.00907722	0.00210764
4.7	-0.00843434	0.00209958
4.71	-0.00779185	0.00209153
4.72	-0.00714979	0.00208349
4.73	-0.00650824	0.00207547
4.74	-0.00586726	0.00206746
4.75	-0.00522691	0.00205947
4.76	-0.00458725	0.00205149
4.77	-0.00394835	0.00204353
4.78	-0.00331027	0.0020356
4.79	-0.00267307	0.00202769
4.8	-0.00203681	0.0020198
4.81	-0.00140156	0.00201193
4.82	-0.000767376	0.0020041
4.83	-0.000134319	0.00199629
4.84	0.000497548	0.00198851
4.85	0.00112817	0.00198077
4.86	0.00175747	0.00197305
4.87	0.00238541	0.00196537
4.88	0.00301191	0.00195773
4.89	0.00363692	0.00195013
4.9	0.00426038	0.00194256
4.91	0.00488223	0.00193503
4.92	0.00550241	0.00192755
4.93	0.00612086	0.0019201
4.94	0.00673752	0.00191271
4.95	0.00735234	0.00190535
4.96	0.00796526	0.00189805
4.97	0.00857621	0.00189079
4.98	0.00918515	0.00188358
4.99	0.00979201	0.00187642
5	0.0103967	0.00186931
5.01	0.0109993	0.00186226
5.02	0.0115996	0.00185526
5.03	0.0121976	0.00184831
5.04	0.0127932	0.00184142
5.05	0.0133864	0.00183459
5.06	0.0139772	0.00182782
5.07	0.0145654	0.0018211
5.08	0.0151511	0.00181445
5.09	0.0157341	0.00180786
5.1	0.0163145	0.00180133
5.11	0.0168921	0.00179486
5.12	0.017467	0.00178846
5.13	0.018039	0.00178212
5.14	0.0186081	0.00177585
5.15	0.0191742	0.00176964
5.16	0.0197374	0.0017635
5.17	0.0202975	0.00175743
5.18	0.0208546	0.00175143
5.19	0.0214085	0.0017455
5.2	0.0219591	0.00173964
5.21	0.0225066	0.00173385
5.22	0.0230508	0.00172813
5.23	0.0235916	0.00172248
5.24	0.024129	0.00171691
5.25	0.024663	0.00171141
5.26	0.0251936	0.00170598
5.27	0.0257206	0.00170063
5.28	0.026244	0.00169535
5.29	0.0267638	0.00169015
5.3	0.0272799	0.00168503
5.31	0.0277924	0.00167998
5.32	0.028301	0.001675
5.33	0.0288059	0.00167011
5.34	0.029307	0.00166529
5.35	0.0298041	0.00166054
5.36	0.0302974	0.00165588
5.37	0.0307866	0.00165129
5.38	0.0312719	0.00164678
5.39	0.0317531	0.00164235
5.4	0.0322302	0.001638
5.41	0.0327032	0.00163372
5.42	0.033172	0.00162952
5.43	0.0336366	0.0016254
5.44	0.034097	0.00162136
5.45	0.0345531	0.0016174
5.46	0.0350048	0.00161351
5.47	0.0354523	0.00160971
5.48	0.0358953	0.00160598
5.49	0.0363338	0.00160233
5.5	0.0367679	0.00159875
5.51	0.0371975	0.00159526
5.52	0.0376226	0.00159184
5.53	0.0380431	0.0015885
5.54	0.038459	0.00158523
5.55	0.0388703	0.00158204
5.56	0.0392769	0.00157893
5.57	0.0396788	0.00157589
5.58	0.0400759	0.00157293
5.59	0.0404683	0.00157004
5.6	0.0408559	0.00156723
5.61	0.0412387	0.00156449
5.62	0.0416167	0.00156182
5.63	0.0419897	0.00155923
5.64	0.0423579	0.00155671
5.65	0.0427211	0.00155426
5.66	0.0430793	0.00155188
5.67	0.0434326	0.00154957
5.68	0.0437808	0.00154733
5.69	0.044124	0.00154517
5.7	0.0444622	0.00154307
5.71	0.0447952	0.00154103
5.72	0.0451232	0.00153907
5.73	0.045446	0.00153717
5.74	0.0457636	0.00153534
5.75	0.0460761	0.00153357
5.76	0.0463834	0.00153186
5.77	0.0466854	0.00153022
5.78	0.0469822	0.00152864
5.79	0.0472737	0.00152712
5.8	0.04756	0.00152567
5.81	0.047841	0.00152427
5.82	0.0481166	0.00152293
5.83	0.0483869	0.00152165
5.84	0.0486519	0.00152042
5.85	0.0489114	0.00151925
5.86	0.0491656	0.00151814
5.87	0.0494144	0.00151708
5.88	0.0496578	0.00151607
5.89	0.0498958	0.00151511
5.9	0.0501283	0.00151421
5.91	0.0503554	0.00151335
5.92	0.050577	0.00151255
5.93	0.0507931	0.00151179
5.94	0.0510037	0.00151107
5.95	0.0512088	0.0015104
5.96	0.0514085	0.00150978
5.97	0.0516025	0.0015092
5.98	0.0517911	0.00150866
5.99	0.0519741	0.00150816
6	0.0521516	0.0015077
6.01	0.0523236	0.00150728
6.02	0.0524899	0.00150689
6.03	0.0526507	0.00150654
6.04	0.052806	0.00150623
6.05	0.0529556	0.00150595
6.06	0.0530997	0.0015057
6.07	0.0532382	0.00150548
6.08	0.0533711	0.00150529
6.09	0.0534984	0.00150513
6.1	0.0536202	0.001505
6.11	0.0537363	0.00150489
6.12	0.0538468	0.00150481
6.13	0.0539518	0.00150475
6.14	0.0540511	0.00150472
6.15	0.0541449	0.0015047
6.16	0.0542331	0.00150471
6.17	0.0543156	0.00150473
6.18	0.0543926	0.00150477
6.19	0.054464	0.00150483
6.2	0.0545298	0.0015049
6.21	0.0545901	0.00150498
6.22	0.0546448	0.00150508
6.23	0.0546939	0.00150519
6.24	0.0547374	0.0015053
6.25	0.0547754	0.00150543
6.26	0.0548078	0.00150556
6.27	0.0548347	0.0015057
6.28	0.054856	0.00150584
6.29	0.0548719	0.00150599
6.3	0.0548822	0.00150614
6.31	0.054887	0.00150629
6.32	0.0548863	0.00150644
6.33	0.0548801	0.00150659
6.34	0.0548684	0.00150674
6.35	0.0548513	0.00150688
6.36	0.0548287	0.00150702
6.37	0.0548007	0.00150715
6.38	0.0547673	0.00150728
6.39	0.0547284	0.00150739
6.4	0.0546842	0.0015075
6.41	0.0546345	0.0015076
6.42	0.0545795	0.00150768
6.43	0.0545191	0.00150775
6.44	0.0544534	0.00150781
6.45	0.0543824	0.00150785
6.46	0.0543061	0.00150788
6.47	0.0542245	0.00150789
6.48	0.0541376	0.00150788
6.49	0.0540455	0.00150785
6.5	0.0539481	0.0015078
6.51	0.0538456	0.00150773
6.52	0.0537378	0.00150764
6.53	0.0536249	0.00150752
6.54	0.0535068	0.00150738
6.55	0.0533836	0.00150721
6.56	0.0532553	0.00150702
6.57	0.0531219	0.0015068
6.58	0.0529835	0.00150656
6.59	0.05284	0.00150628
6.6	0.0526915	0.00150597
6.61	0.052538	0.00150564
6.62	0.0523796	0.00150527
6.63	0.0522162	0.00150487
6.64	0.0520479	0.00150444
6.65	0.0518748	0.00150397
6.66	0.0516967	0.00150347
6.67	0.0515139	0.00150293
6.68	0.0513262	0.00150236
6.69	0.0511338	0.00150175
6.7	0.0509366	0.0015011
6.71	0.0507347	0.00150042
6.72	0.0505281	0.00149969
6.73	0.0503168	0.00149893
6.74	0.0501009	0.00149813
6.75	0.0498804	0.00149728
6.76	0.0496554	0.0014964
6.77	0.0494258	0.00149547
6.78	0.0491917	0.0014945
6.79	0.0489531	0.00149349
6.8	0.0487101	0.00149244
6.81	0.0484627	0.00149134
6.82	0.0482109	0.0014902
6.83	0.0479547	0.00148901
6.84	0.0476943	0.00148778
6.85	0.0474295	0.0014865
6.86	0.0471606	0.00148518
6.87	0.0468874	0.00148381
6.88	0.04661	0.0014824
6.89	0.0463286	0.00148094
6.9	0.046043	0.00147943
6.91	0.0457533	0.00147788
6.92	0.0454597	0.00147627
6.93	0.045162	0.00147462
6.94	0.0448604	0.00147293
6.95	0.0445549	0.00147118
6.96	0.0442455	0.00146939
6.97	0.0439323	0.00146755
6.98	0.0436153	0.00146566
6.99	0.0432945	0.00146372
7	0.04297	0.00146174
7.01	0.0426418	0.0014597
7.02	0.04231	0.00145762
7.03	0.0419745	0.00145549
7.04	0.0416356	0.00145331
7.05	0.041293	0.00145108
7.06	0.0409471	0.00144881
7.07	0.0405976	0.00144648
7.08	0.0402448	0.00144411
7.09	0.0398887	0.00144169
7.1	0.0395292	0.00143923
7.11	0.0391664	0.00143671
7.12	0.0388004	0.00143415
7.13	0.0384313	0.00143154
7.14	0.038059	0.00142889
7.15	0.0376836	0.00142619
7.16	0.0373051	0.00142344
7.17	0.0369236	0.00142065
7.18	0.0365392	0.00141781
7.19	0.0361518	0.00141492
7.2	0.0357616	0.00141199
7.21	0.0353685	0.00140902
7.22	0.0349726	0.001406
7.23	0.034574	0.00140294
7.24	0.0341727	0.00139983
7.25	0.0337687	0.00139669
7.26	0.0333622	0.0013935
7.27	0.032953	0.00139026
7.28	0.0325414	0.00138699
7.29	0.0321272	0.00138367
7.3	0.0317107	0.00138032
7.31	0.0312917	0.00137692
7.32	0.0308705	0.00137349
7.33	0.0304469	0.00137002
7.34	0.0300211	0.0013665
7.35	0.0295931	0.00136296
7.36	0.029163	0.00135937
7.37	0.0287308	0.00135575
7.38	0.0282965	0.00135209
7.39	0.0278602	0.0013484
7.4	0.0274219	0.00134467
7.41	0.0269818	0.00134091
7.42	0.0265398	0.00133712
7.43	0.0260959	0.00133329
7.44	0.0256503	0.00132943
7.45	0.025203	0.00132555
7.46	0.024754	0.00132163
7.47	0.0243034	0.00131768
7.48	0.0238512	0.00131371
7.49	0.0233975	0.0013097
7.5	0.0229423	0.00130567
7.51	0.0224857	0.00130162
7.52	0.0220277	0.00129753
7.53	0.0215684	0.00129343
7.54	0.0211078	0.0012893
7.55	0.0206459	0.00128515
7.56	0.0201829	0.00128097
7.57	0.0197187	0.00127678
7.58	0.0192535	0.00127256
7.59	0.0187871	0.00126833
7.6	0.0183198	0.00126407
7.61	0.0178516	0.0012598
7.62	0.0173825	0.00125551
7.63	0.0169125	0.00125121
7.64	0.0164417	0.00124689
7.65	0.0159702	0.00124256
